67.238
68.639
69.754
70.143
69.515
67.792
65.274
61.987
57.818
53.119
48.127
42.889
38.014
33.987
30.762
28.017
25.776
24.181
23.252
22.904
22.745
22.224
22.020
22.004
22.426
23.116
23.888
24.195
24.434
24.566
24.954
25.259
25.701
25.661
25.640
25.520
25.791
26.208
26.645
26.959
27.408
27.964
28.346
28.720
29.084
28.751
28.222
28.229
28.245
28.370
28.743
28.661
28.849
29.224
30.624
33.017
35.399
36.317
35.261
32.071
28.089
24.891
23.700
24.964
30.081
39.524
53.014
69.859
89.563
111.513
135.526
161.256
187.166
212.166
236.006
257.576
276.996
295.086
311.226
324.066
332.686
336.236
334.376
326.526
313.196
294.796
272.486
247.106
219.366
189.516
157.906
125.016
91.356
57.180
24.510
-5.408
-31.586
-53.547
-71.688
-85.684
-95.194
-99.974
-100.754
-98.894
-95.264
-91.434
-87.774
-83.654
-78.754
-73.144
-67.902
-62.998
-58.229
-53.252
-47.922
-42.649
-37.792
-33.897
-30.660
-27.945
-25.348
-23.150
-21.522
-20.973
-21.017
-21.686
-22.298
-22.847
-23.485
-24.085
-24.897
-25.446
-25.736
-26.035
-26.295
-26.945
-27.979
-28.874
-29.888
-30.324
-30.837
-31.398
-31.942
-32.400
-32.620
-32.514
-32.372
-32.543
-32.847
-32.841
-32.454
-31.587
-30.787
-30.190
-29.882
-29.418
-28.676
-27.836
-26.885
-26.031
-25.130
-24.096
-22.243
-19.967
-17.487
-15.182
-13.052
-10.679
-8.164
-5.308
-2.475
-0.053
2.228
4.582
7.220
10.291
13.721
16.951
19.813
23.034
26.190
29.774
33.098
35.993
38.286
40.531
42.669
44.967
47.129
49.085
51.173
52.744
54.404
56.192
58.338
60.472
62.538
64.139
65.159
65.336
64.654
64.654
68.533
72.386
75.535
77.913
79.029
78.859
77.508
75.175
72.170
69.777
67.716
67.176
67.894
69.620
72.529
75.643
78.358
80.213
80.777
79.984
77.909
74.377
70.038
64.749
59.101
53.541
48.542
44.224
41.165
38.646
37.080
36.114
35.358
34.753
34.343
33.715
33.492
32.973
31.858
30.862
29.665
28.931
28.273
28.234
28.668
29.331
30.102
30.504
30.602
30.175
29.618
28.984
29.214
29.738
31.090
32.785
33.982
34.094
32.083
27.784
22.672
18.532
18.062
22.756
33.512
49.387
69.001
89.459
108.089
123.724
137.434
152.404
169.934
191.924
217.124
242.234
263.384
276.374
278.254
266.204
239.214
197.344
142.694
77.591
7.227
-62.454
-124.936
-173.986
-206.636
-222.226
-223.596
-215.706
-204.386
-195.166
-190.676
-191.126
-193.986
-195.746
-193.586
-186.036
-173.096
-155.346
-134.026
-109.886
-84.616
-59.370
-35.845
-15.777
0.693
12.329
19.511
23.259
24.478
24.314
24.332
24.975
26.324
28.223
30.335
31.970
32.736
33.039
32.770
32.061
31.465
31.237
31.524
31.873
31.845
31.896
31.585
30.484
28.441
26.190
22.699
19.482
16.628
13.905
11.726
9.932
8.808
8.487
7.524
6.231
4.410
2.476
0.268
-2.190
-4.139
-6.000
-7.466
-7.942
-7.972
-7.298
-6.388
-5.414
-4.493
-4.129
-4.189
-4.078
-3.607
-2.446
-1.101
1.247
3.711
7.141
10.706
14.533
17.684
20.091
22.171
24.687
27.659
30.924
34.408
38.527
42.777
46.615
50.325
53.473
55.607
57.209
57.874
58.199
58.222
58.534
59.075
60.094
61.744
63.799
65.939
67.672
68.230
67.662
66.348
65.171
64.201
64.646
66.101
68.613
68.613
67.870
67.331
67.066
67.059
67.708
68.514
69.356
70.006
70.550
71.213
72.098
73.011
73.937
74.863
75.531
75.908
76.132
76.782
77.420
77.692
77.685
77.933
78.000
78.287
78.497
78.533
77.727
77.203
76.957
76.336
75.039
73.193
70.987
69.160
68.691
69.562
71.309
73.710
75.792
77.550
78.795
79.571
79.189
77.427
75.099
72.680
70.216
67.897
66.061
64.491
63.396
62.730
62.317
62.106
61.588
60.965
60.059
60.243
61.693
63.778
66.072
67.890
68.586
67.872
65.672
62.218
57.665
53.256
51.533
54.933
65.474
85.606
117.198
160.422
211.136
263.006
308.316
340.716
355.406
349.656
323.696
280.116
223.946
161.439
99.358
44.071
1.015
-26.324
-37.304
-33.864
-19.524
0.711
22.630
42.070
56.701
65.573
69.071
69.491
69.864
72.123
74.895
76.263
76.038
76.043
76.416
77.152
77.640
78.045
77.879
77.479
77.625
78.584
80.356
82.077
83.302
83.731
84.156
84.581
85.524
86.662
87.765
88.482
89.322
90.494
92.286
93.994
95.004
95.292
95.389
96.380
97.908
99.617
100.924
101.714
102.835
104.900
107.811
111.191
114.590
117.421
119.897
122.252
124.658
127.226
129.430
131.251
132.823
134.374
136.121
137.889
139.260
140.319
141.239
142.317
143.923
145.432
146.566
147.166
147.685
148.268
148.788
148.734
148.235
146.682
145.186
143.968
143.050
141.635
139.818
137.573
135.156
132.590
129.436
126.271
122.417
118.189
113.762
110.230
107.386
105.013
102.734
100.692
98.965
97.600
97.137
96.459
95.572
94.240
93.221
92.818
93.065
93.623
94.216
94.059
93.607
93.073
92.894
92.845
92.736
92.211
92.211
92.230
92.613
93.216
94.324
95.545
96.734
98.192
99.533
100.956
102.340
103.634
104.428
104.896
105.217
105.077
105.095
105.354
105.744
105.771
105.646
105.191
104.403
103.755
102.981
101.598
99.876
98.007
96.376
94.951
93.947
92.884
92.285
92.031
92.487
93.354
94.158
94.469
93.667
92.339
90.628
89.069
86.943
84.969
82.742
80.460
79.063
78.483
78.372
78.490
78.625
78.649
78.494
78.392
78.441
77.869
77.122
76.574
76.938
78.108
79.724
80.547
80.485
79.675
78.187
76.171
73.674
70.183
65.152
60.385
58.609
62.544
73.260
93.887
125.307
166.164
211.253
253.583
286.433
304.143
303.293
283.883
248.263
200.813
147.252
93.015
44.396
6.596
-16.737
-24.027
-17.237
0.113
23.243
47.036
66.884
79.924
85.988
86.146
82.358
78.034
75.617
76.302
77.792
79.144
79.542
79.953
80.231
80.436
80.765
80.996
80.770
80.686
80.787
81.378
82.344
82.928
83.173
83.596
84.146
85.230
86.219
86.801
87.002
87.225
87.658
88.310
89.141
89.895
90.729
91.924
93.531
95.195
96.866
98.986
100.481
102.226
103.973
106.019
108.507
110.729
112.564
114.593
116.579
118.921
121.553
123.629
125.473
127.569
129.514
131.516
133.424
134.899
135.734
136.284
136.899
137.869
138.967
139.706
140.358
140.936
142.086
143.093
144.041
144.402
143.877
142.814
141.131
139.103
137.031
134.488
131.430
128.378
125.732
123.475
121.476
119.167
116.517
113.957
111.408
109.070
106.582
104.097
101.417
98.891
96.873
95.349
93.859
92.158
90.591
88.965
87.676
86.888
86.551
86.722
87.157
87.409
87.752
87.957
88.102
88.598
88.790
88.790
89.493
89.038
87.242
84.482
81.210
78.377
76.633
76.061
76.987
78.954
81.538
84.195
86.279
87.180
86.841
84.822
81.413
76.914
71.583
65.991
60.529
55.084
50.520
46.387
43.278
40.997
38.856
37.166
35.753
34.434
33.685
33.351
33.157
33.076
32.596
31.949
31.141
30.427
29.999
30.130
30.299
31.320
32.188
32.897
33.317
33.707
33.640
33.132
32.375
31.752
31.317
31.666
32.773
34.683
37.127
39.782
41.356
40.941
38.028
32.644
26.616
22.671
22.959
29.944
43.979
64.348
87.889
111.503
132.418
149.678
163.888
178.108
194.658
215.248
239.338
264.408
286.318
300.328
302.388
289.598
260.088
214.038
152.838
80.363
1.716
-76.302
-146.082
-202.172
-240.282
-260.212
-264.442
-258.092
-247.442
-237.852
-232.942
-233.042
-236.752
-240.372
-241.242
-237.082
-227.162
-211.932
-192.002
-168.222
-141.912
-114.922
-88.112
-62.968
-40.491
-21.729
-6.914
4.067
11.662
17.004
20.509
22.985
25.543
27.853
30.169
32.483
34.289
35.296
35.338
34.938
34.623
34.427
34.485
34.888
35.091
34.971
34.222
32.877
30.946
29.084
27.372
25.884
24.117
22.615
21.608
20.916
20.159
18.925
17.282
15.461
13.296
10.928
8.336
5.455
2.647
0.493
-1.057
-2.162
-3.644
-5.094
-6.725
-8.856
-10.772
-12.564
-13.953
-14.774
-14.973
-14.635
-13.783
-13.040
-12.341
-11.544
-11.401
-11.519
-11.567
-11.462
-10.951
-9.903
-7.716
-4.358
-0.244
4.534
9.388
13.609
17.384
20.599
23.963
26.995
30.115
34.009
38.727
43.374
48.226
52.832
57.709
61.848
65.188
67.191
68.443
68.773
68.909
69.018
69.589
70.725
72.790
75.082
75.082
77.645
81.198
84.906
88.606
91.859
94.531
95.792
95.563
93.907
90.728
86.888
82.647
79.229
77.191
77.294
78.898
81.810
85.379
88.383
90.429
90.721
88.690
84.611
79.133
72.265
64.501
57.027
50.480
45.576
42.453
40.689
40.240
40.521
40.999
41.084
41.010
40.157
39.058
37.920
36.677
35.939
35.513
35.245
35.207
35.375
35.446
35.342
35.336
35.013
34.704
34.623
34.704
35.153
36.187
37.906
39.837
41.176
40.709
37.972
33.401
28.203
24.821
25.314
31.580
43.507
59.997
78.521
96.860
113.144
127.417
141.547
158.277
179.397
204.907
233.047
260.327
282.407
296.007
297.077
284.257
256.397
213.567
157.547
91.514
20.468
-48.709
-109.763
-157.633
-189.613
-205.953
-210.113
-206.703
-201.323
-197.673
-197.773
-201.043
-205.043
-207.323
-205.843
-199.903
-188.953
-173.283
-153.373
-130.263
-104.843
-78.583
-53.419
-30.201
-11.038
3.956
15.061
22.367
27.228
30.385
32.524
34.721
36.874
39.244
41.202
42.753
43.079
42.806
41.862
40.646
39.606
38.915
39.317
40.357
41.636
42.150
41.822
40.399
37.607
33.849
29.587
25.549
22.080
20.094
19.159
18.969
19.582
19.885
20.265
19.839
19.056
16.971
14.216
10.712
6.797
3.106
-0.212
-2.318
-3.437
-3.417
-3.142
-2.702
-2.415
-2.209
-1.892
-1.630
-1.355
-0.710
0.103
1.149
2.303
3.127
3.708
4.387
5.453
6.374
7.877
9.775
12.761
16.215
20.799
25.271
30.481
35.373
39.910
43.694
46.456
48.504
50.355
51.942
53.658
55.954
58.420
61.387
65.005
68.688
71.885
74.470
76.282
77.081
77.436
77.446
77.322
77.597
78.921
80.779
80.779
81.464
82.273
82.844
83.449
84.169
84.922
85.930
87.109
87.883
88.570
89.626
90.950
92.691
94.664
96.399
97.891
99.042
100.088
101.344
102.169
102.403
102.156
101.510
100.673
100.159
99.279
97.823
96.111
93.958
92.557
91.989
91.769
91.754
91.646
91.200
90.923
91.298
92.335
93.098
93.243
92.932
92.046
91.511
90.524
89.007
86.886
84.009
81.237
79.200
77.739
76.780
75.837
75.044
74.846
75.643
76.494
77.563
78.744
79.585
81.012
82.717
83.981
84.435
83.834
81.865
78.658
74.517
69.616
65.312
64.236
68.458
80.256
103.635
140.353
188.576
241.889
292.749
334.299
360.509
367.199
352.059
316.179
263.869
201.729
137.135
76.535
25.791
-10.441
-29.921
-32.841
-21.541
-1.062
22.446
43.494
58.803
67.956
71.563
70.896
68.750
68.157
68.908
69.513
69.696
69.936
70.502
70.829
70.495
69.998
70.221
70.990
71.446
71.795
72.107
72.455
73.587
75.030
75.979
76.686
77.093
77.253
78.044
79.505
81.354
82.904
84.086
85.497
87.111
88.780
90.296
91.759
92.934
94.013
95.841
98.211
100.759
103.015
105.011
106.931
109.626
112.937
116.095
118.723
120.756
122.271
124.127
125.728
127.174
128.126
128.686
128.919
129.471
130.057
130.429
130.633
130.581
130.694
131.197
131.868
132.376
132.326
131.543
130.041
128.299
126.704
125.239
123.443
121.623
119.534
117.940
116.592
115.405
113.869
111.565
109.039
106.791
104.393
102.029
99.190
96.265
93.122
90.857
89.020
87.205
85.365
83.163
81.230
79.958
79.072
78.612
78.016
77.619
77.529
77.718
77.993
78.042
77.932
77.360
76.369
75.363
74.155
74.155
73.981
74.034
74.380
74.581
74.406
74.291
74.190
74.418
74.891
75.264
75.744
76.518
77.594
78.708
79.326
79.508
79.702
79.903
80.234
80.543
80.307
79.937
79.501
79.083
78.740
77.921
77.217
76.276
75.533
75.046
74.606
73.703
72.576
71.462
70.959
71.323
72.106
72.761
72.871
72.596
72.137
71.458
70.385
68.311
65.654
62.776
60.368
58.904
57.944
57.014
56.178
55.859
56.082
56.451
56.895
56.714
56.391
55.998
55.901
56.662
57.936
58.647
58.496
57.407
55.580
52.793
48.757
43.672
39.444
39.447
46.518
63.889
93.951
135.528
184.243
233.203
275.663
305.263
317.353
309.373
281.753
237.333
182.193
123.135
66.831
19.065
-15.749
-35.157
-38.957
-29.357
-10.783
10.534
29.698
43.503
50.829
52.225
49.708
45.424
42.093
41.043
41.367
41.780
42.105
42.380
42.710
42.567
42.667
42.877
43.374
44.234
45.403
46.220
47.079
47.989
48.707
49.461
50.151
50.701
51.197
51.748
52.313
52.450
52.536
52.758
53.364
54.249
55.359
56.427
57.554
58.336
59.542
61.052
62.947
64.637
66.574
68.291
70.452
72.906
75.447
77.713
80.096
82.764
86.141
89.588
92.539
95.101
97.148
98.688
99.892
101.050
102.009
102.414
102.775
103.008
103.317
104.006
104.692
105.221
105.376
104.997
104.703
104.533
104.177
102.790
100.640
97.572
94.765
92.239
90.104
87.572
84.804
81.760
79.022
76.579
73.650
70.877
68.099
65.538
63.518
61.762
60.345
58.908
57.717
56.696
55.894
55.526
55.464
55.789
55.905
55.614
55.011
54.684
54.653
54.843
55.034
54.984
54.881
54.642
54.565
54.778
54.778
52.528
49.618
46.331
43.000
39.589
36.651
34.309
32.672
31.837
31.637
31.651
31.694
31.466
31.296
31.164
31.353
31.205
30.650
30.054
29.697
29.644
29.653
29.350
28.809
28.499
28.566
29.066
29.526
29.858
30.055
30.252
30.660
31.161
31.831
32.120
32.348
32.454
32.753
33.594
34.397
34.864
35.120
35.355
36.147
37.087
37.955
38.332
38.571
38.884
39.349
40.152
41.360
42.271
42.395
41.381
38.921
35.176
30.715
26.957
25.056
25.982
30.989
39.932
52.955
68.999
87.946
109.425
134.083
161.540
189.780
217.410
244.390
271.100
297.800
323.960
348.460
369.400
385.120
394.920
397.520
392.480
379.940
359.780
333.430
302.680
268.910
232.790
194.810
155.780
116.065
76.787
39.757
6.044
-23.464
-49.259
-71.450
-89.490
-102.450
-109.740
-112.060
-111.370
-108.390
-103.820
-98.280
-92.220
-85.690
-79.210
-73.210
-67.530
-61.830
-55.896
-49.780
-44.053
-39.462
-35.547
-31.945
-28.609
-25.737
-23.341
-21.845
-20.921
-20.804
-21.079
-21.631
-22.546
-23.834
-24.827
-25.543
-26.006
-26.385
-27.267
-28.340
-29.220
-30.018
-30.539
-31.019
-31.773
-32.582
-33.437
-33.937
-34.042
-34.140
-34.260
-35.104
-35.956
-36.317
-36.263
-36.242
-36.405
-36.756
-36.593
-36.076
-34.872
-33.616
-32.565
-31.520
-30.653
-29.388
-27.941
-26.518
-25.367
-24.243
-22.864
-21.254
-18.814
-16.072
-13.266
-10.530
-7.611
-4.321
-0.652
2.984
6.336
9.134
11.849
14.642
17.624
20.822
23.734
26.382
29.191
32.168
35.673
39.315
42.576
45.714
48.829
51.871
54.749
57.413
59.755
62.025
64.186
66.158
67.868
68.976
69.078
68.343
66.836
64.399
64.399
61.353
57.484
52.671
47.594
42.865
38.662
35.165
32.109
29.813
28.126
27.291
27.428
28.026
28.414
28.600
28.662
28.852
29.428
29.834
30.501
30.725
30.943
31.246
32.092
33.096
33.671
34.040
34.059
34.061
34.218
34.242
34.394
34.070
33.727
33.387
33.531
33.724
34.006
34.338
34.443
34.507
34.883
35.299
36.097
36.496
36.510
36.328
36.636
37.257
38.412
39.568
40.944
42.253
43.577
43.898
42.528
39.233
34.664
30.643
28.628
29.457
33.564
41.218
52.801
67.953
86.835
108.194
131.761
156.761
182.441
207.911
233.021
257.701
282.561
306.931
330.491
352.131
370.841
384.081
390.511
389.441
380.721
364.851
343.071
316.601
286.921
254.651
220.531
185.621
150.841
116.585
83.145
50.684
20.270
-7.722
-32.318
-53.459
-70.699
-83.829
-92.809
-98.159
-100.149
-99.719
-97.649
-95.159
-91.859
-87.739
-82.679
-77.679
-72.639
-67.603
-62.405
-56.724
-50.911
-45.178
-39.939
-35.122
-31.072
-27.484
-24.121
-20.637
-17.434
-15.305
-13.962
-13.487
-13.578
-13.716
-13.838
-14.464
-15.470
-16.420
-17.098
-17.530
-17.867
-18.694
-19.847
-21.067
-21.982
-23.098
-24.107
-25.309
-26.528
-27.535
-28.110
-28.426
-28.615
-28.616
-28.871
-29.105
-29.260
-29.175
-29.161
-29.436
-29.681
-30.017
-30.188
-29.837
-29.059
-28.339
-27.513
-26.352
-24.780
-22.675
-20.417
-18.271
-16.186
-14.075
-11.636
-9.420
-7.402
-5.753
-4.203
-2.623
-0.510
1.669
4.173
6.874
9.596
12.597
16.078
19.684
23.153
26.353
29.376
32.302
35.387
38.584
41.463
44.063
46.327
48.414
50.877
54.239
57.856
61.305
64.429
66.846
68.831
70.247
70.487
70.487
70.702
71.338
72.281
73.106
73.946
74.623
75.349
76.255
77.643
78.838
80.084
80.894
80.991
80.765
80.570
80.768
80.726
80.459
80.223
80.125
80.653
81.737
83.065
83.726
84.044
84.378
84.863
85.819
86.508
86.347
85.762
85.357
85.782
86.708
88.118
89.602
91.039
92.292
93.785
95.220
96.026
95.976
95.162
93.525
91.552
90.036
88.179
86.599
85.255
84.185
84.180
84.745
86.047
87.035
87.652
88.227
89.493
91.296
92.763
93.241
93.330
94.173
96.989
100.960
104.603
106.205
104.312
98.183
87.877
76.404
68.360
69.062
80.897
102.543
130.247
159.949
186.951
208.678
222.818
227.808
223.458
209.688
188.098
160.834
131.337
104.314
84.228
72.938
70.764
75.259
83.343
91.319
97.109
98.803
96.362
92.048
89.015
89.413
92.399
95.636
97.742
98.656
98.943
99.596
100.818
102.504
103.707
103.639
102.990
102.608
102.670
103.038
103.720
103.853
103.677
103.598
104.294
105.422
106.870
107.959
108.795
108.763
109.189
109.722
110.477
111.014
111.144
110.466
109.901
109.171
108.396
107.259
105.726
104.071
102.903
102.578
102.872
102.832
102.613
102.984
103.641
104.575
105.988
106.818
107.184
107.481
108.107
108.964
109.549
109.725
109.356
108.180
107.515
106.825
106.145
104.996
103.885
102.276
101.078
100.171
99.386
98.320
97.285
96.239
95.649
95.321
94.550
93.242
91.421
89.877
88.834
88.332
88.192
87.699
86.490
85.284
84.448
83.660
82.662
81.589
80.116
78.433
77.378
76.911
76.670
76.220
75.850
75.712
75.757
76.110
76.765
77.393
77.599
77.380
77.241
77.773
78.695
79.552
79.826
79.476
79.476
76.968
73.449
69.508
65.674
62.251
59.114
56.311
53.579
51.734
50.887
50.789
51.097
51.372
51.234
50.904
50.733
50.983
51.151
51.407
50.821
50.206
49.682
49.692
49.754
49.770
49.409
49.278
49.369
49.759
50.552
51.086
50.904
50.454
50.219
50.204
50.512
50.938
50.796
50.897
50.786
50.991
51.536
52.193
52.554
52.626
52.639
52.936
53.843
54.818
55.436
56.371
57.474
58.543
58.671
57.443
54.268
49.638
44.618
40.974
40.127
42.221
47.568
56.793
70.033
86.401
105.479
126.666
149.277
173.661
198.621
223.681
248.881
274.161
300.031
325.731
350.941
374.321
394.131
407.571
413.341
411.141
401.671
385.601
363.731
337.401
307.241
274.111
238.471
201.601
163.841
125.521
87.130
50.407
16.703
-13.100
-38.913
-60.679
-78.279
-90.269
-96.769
-98.689
-96.979
-93.509
-88.889
-84.349
-79.499
-74.049
-68.029
-61.829
-55.979
-50.389
-44.485
-38.440
-32.594
-27.285
-22.909
-19.176
-15.994
-12.832
-9.933
-7.595
-6.486
-6.445
-7.066
-7.674
-8.393
-9.021
-10.117
-11.340
-12.302
-13.128
-13.401
-13.819
-14.402
-14.997
-15.607
-16.031
-16.506
-16.717
-17.527
-18.539
-19.505
-20.092
-20.615
-20.958
-21.417
-22.174
-22.496
-22.226
-21.572
-20.741
-20.084
-19.635
-19.344
-18.652
-17.866
-16.868
-16.236
-15.506
-14.516
-13.450
-11.887
-10.163
-8.589
-7.023
-5.150
-2.655
-0.137
2.924
5.824
8.350
10.996
14.467
17.897
21.353
24.567
27.152
29.811
32.666
35.515
38.477
41.543
44.487
47.492
50.772
54.106
57.423
60.003
62.515
64.518
66.360
68.306
70.600
72.725
74.689
76.250
77.536
78.316
78.816
78.208
78.208
78.228
78.249
78.272
78.296
78.322
78.350
78.379
78.410
78.442
78.476
78.512
78.549
78.588
78.628
78.670
78.713
78.758
78.805
78.853
78.903
78.955
79.008
79.062
79.118
79.176
79.236
79.383
79.394
79.217
79.340
79.555
79.724
79.915
79.897
79.934
79.942
79.938
79.995
79.894
79.626
79.246
78.941
78.860
78.851
78.768
78.608
78.543
78.604
78.921
79.224
79.517
79.748
79.801
80.004
80.339
80.442
80.695
80.814
80.766
80.872
81.158
81.669
82.331
82.719
83.153
84.255
86.890
91.454
97.327
104.373
113.716
126.511
141.619
156.727
170.214
180.868
188.599
193.250
194.780
192.930
187.778
179.522
168.838
156.949
144.724
132.037
119.402
107.079
95.370
84.254
74.289
65.194
56.832
48.351
39.678
31.795
26.155
23.183
21.776
20.975
21.138
24.223
30.355
38.848
48.679
58.552
68.110
76.746
84.072
89.755
93.132
94.557
94.342
93.392
92.745
92.605
93.053
93.915
94.823
95.518
96.314
97.046
98.019
98.816
99.413
99.950
100.750
101.747
102.679
103.547
104.029
104.447
104.791
105.238
105.598
105.736
105.801
105.797
105.961
106.346
106.572
106.964
107.205
107.394
107.643
107.893
108.144
108.397
108.652
108.909
109.166
109.426
109.687
109.950
110.214
110.480
110.747
111.017
111.287
111.559
111.831
112.102
112.372
112.641
112.909
113.177
113.444
113.710
113.976
114.240
114.504
114.767
115.030
115.292
115.552
115.813
116.072
116.331
116.589
116.846
117.102
117.358
117.613
117.867
118.120
118.373
118.625
118.876
119.126
119.376
119.625
119.873
120.120
120.367
120.613
120.858
121.102
121.346
121.589
121.831
121.831
123.189
124.162
124.193
123.580
121.892
119.044
115.142
110.272
104.564
98.312
92.092
86.018
80.107
74.906
70.509
66.926
64.016
61.979
60.858
60.117
59.609
59.153
59.033
59.098
59.444
59.868
60.294
60.472
60.626
61.026
61.510
61.787
62.195
62.488
63.153
64.002
64.892
65.575
66.160
66.408
66.840
67.462
67.761
68.024
68.315
68.443
68.446
68.664
69.055
69.094
69.076
69.081
70.035
71.297
72.478
73.042
72.458
70.255
67.122
63.728
61.705
61.567
63.611
68.033
75.326
85.018
96.030
108.134
121.165
135.154
150.038
164.814
178.900
191.826
203.836
215.226
226.026
236.436
245.536
252.596
256.566
256.996
254.796
249.566
242.256
234.116
225.796
217.376
208.016
196.506
182.366
165.448
145.092
122.303
98.440
74.559
51.340
29.892
10.724
-5.046
-16.576
-23.774
-27.194
-28.234
-27.584
-25.334
-22.204
-18.724
-15.524
-12.441
-9.585
-6.378
-2.042
3.020
8.482
13.449
17.839
22.205
26.684
30.777
34.440
37.781
40.480
42.590
44.322
45.043
45.202
44.674
44.041
43.772
43.713
44.385
44.807
45.011
44.701
44.407
44.541
44.915
45.185
45.246
44.902
44.434
44.213
44.351
45.255
45.570
45.510
45.530
46.084
46.307
46.687
46.895
47.026
47.267
48.258
49.193
50.385
50.770
51.150
51.837
52.935
54.725
56.407
58.387
60.242
62.052
64.332
67.172
69.725
72.137
73.998
75.198
76.621
78.033
79.790
81.133
82.460
84.209
86.591
89.205
92.006
94.581
96.854
98.874
101.418
103.995
106.422
108.488
110.444
112.238
113.976
115.626
117.350
119.444
121.471
123.561
125.863
128.361
130.627
132.864
132.864
136.578
140.196
143.541
146.053
147.249
146.716
145.046
142.336
138.817
135.967
134.111
133.550
134.801
137.305
140.549
143.184
144.942
144.526
142.388
138.660
133.700
128.144
122.207
116.752
112.148
108.447
105.826
104.013
102.853
101.587
100.343
98.628
97.129
95.577
94.586
94.083
94.588
95.311
95.793
96.182
96.046
95.477
94.767
94.238
94.316
94.682
95.417
96.087
97.032
97.350
97.199
97.275
96.981
97.374
97.781
98.105
97.673
96.492
93.930
90.246
86.901
85.544
88.539
96.626
109.745
126.395
143.991
159.641
172.672
184.034
196.412
212.692
234.322
260.492
288.512
314.282
333.202
341.412
336.202
315.522
279.112
228.322
165.769
96.118
24.659
-42.398
-99.108
-140.408
-164.798
-173.428
-170.528
-162.088
-153.178
-147.628
-146.358
-147.438
-148.168
-146.188
-139.818
-128.768
-113.288
-94.098
-71.788
-47.628
-22.578
1.886
24.902
45.197
62.165
75.406
84.755
90.418
93.241
94.191
94.434
94.512
94.967
96.094
97.709
99.468
101.253
102.329
102.971
103.144
102.676
102.055
101.347
100.553
99.683
98.869
98.162
97.293
96.688
95.922
95.035
93.825
92.010
89.589
87.165
84.588
82.364
80.590
79.073
77.788
76.730
75.395
73.836
72.052
70.001
67.664
65.630
63.526
62.141
61.039
60.446
60.124
60.270
60.507
60.432
60.336
59.773
59.027
58.761
58.845
59.654
61.592
64.671
68.328
72.269
75.801
79.146
82.166
84.922
87.190
89.650
92.029
94.735
98.119
101.855
105.783
110.107
114.125
117.904
120.528
122.580
123.501
124.020
124.236
124.530
125.676
127.139
129.200
131.132
132.493
133.350
133.406
133.444
133.846
134.986
136.483
136.483
137.134
137.495
138.093
139.306
141.237
143.567
145.937
148.264
150.245
152.386
154.750
157.045
158.950
159.746
159.514
157.864
155.785
154.242
153.322
152.804
151.998
152.380
154.229
156.239
157.435
158.121
158.179
157.757
156.502
155.195
153.528
151.226
148.022
145.013
143.099
142.979
144.234
145.952
147.081
147.647
147.723
147.037
145.302
141.859
137.587
133.025
129.426
127.276
126.516
126.607
126.543
127.172
128.360
128.700
127.288
124.428
120.272
116.531
113.734
112.635
113.311
115.600
118.728
122.228
125.270
126.742
126.074
122.772
118.018
114.774
115.558
122.518
138.510
165.233
202.218
244.848
287.768
324.448
348.728
355.618
343.318
313.818
271.148
220.117
166.771
116.939
75.101
45.510
29.958
28.388
38.488
56.124
76.494
95.397
109.898
118.373
120.966
119.444
116.541
115.152
116.175
118.190
120.084
121.071
121.627
121.319
120.923
121.393
123.102
125.337
127.944
131.334
134.811
137.197
138.267
138.092
137.025
135.167
132.244
128.362
124.199
120.012
117.272
116.294
117.445
120.468
124.420
128.799
132.714
135.820
138.375
140.698
142.184
141.536
139.841
138.919
140.329
143.851
148.547
153.390
157.685
161.905
165.699
168.481
170.124
170.475
169.709
168.815
168.111
167.353
166.604
165.738
165.719
166.424
167.912
170.413
173.203
174.995
174.876
172.954
170.390
169.433
169.812
170.348
169.812
167.824
165.244
162.265
159.688
157.151
154.592
152.784
152.076
152.250
152.329
151.659
149.911
147.238
144.019
140.570
136.299
131.179
125.145
118.611
112.033
106.754
103.017
100.863
100.341
101.120
102.472
104.109
105.975
107.974
109.734
111.548
114.065
117.931
123.855
130.146
130.146
130.636
130.888
130.723
130.523
130.181
129.771
129.639
129.554
129.324
129.331
129.422
129.862
130.215
130.706
130.938
131.179
131.225
131.878
132.771
133.723
134.150
134.407
134.328
134.680
135.081
135.386
135.334
135.110
134.764
134.671
135.133
135.724
135.646
135.612
135.696
136.229
136.924
137.313
137.262
137.313
136.922
137.237
137.759
138.447
138.835
139.052
139.726
141.188
142.914
144.913
147.316
149.954
152.995
156.822
160.748
164.895
169.213
173.878
179.214
185.196
191.925
199.325
206.846
215.089
223.795
233.201
242.526
251.075
258.246
264.528
269.968
275.488
281.398
287.168
292.488
296.998
301.078
304.858
307.958
310.098
311.238
311.378
310.578
308.898
305.448
300.018
292.488
283.438
273.468
263.448
253.628
244.181
234.595
224.904
215.614
207.819
201.919
197.720
194.885
193.408
192.934
192.903
192.703
191.793
190.020
187.517
184.266
180.839
176.675
171.551
165.415
158.816
152.682
147.654
143.944
141.242
138.752
136.212
132.975
129.009
124.052
118.611
112.736
106.831
101.405
97.314
94.364
91.897
89.448
87.809
86.949
87.179
87.541
87.819
87.354
86.366
85.231
84.585
84.325
84.241
84.177
83.873
83.732
83.899
84.285
84.487
84.591
84.537
84.416
84.735
85.157
85.426
85.381
85.009
84.934
85.523
86.501
87.682
88.593
89.490
90.525
91.795
93.230
94.776
96.016
96.943
98.127
99.778
101.379
102.603
103.717
104.521
105.510
106.861
108.489
109.836
111.053
111.975
112.900
114.226
115.909
117.351
118.937
120.389
122.215
124.359
126.327
128.465
130.245
131.546
132.811
133.767
134.811
135.993
137.536
138.572
139.741
141.492
143.419
145.349
145.349
145.727
146.107
146.632
147.229
147.455
147.344
147.135
146.796
146.605
146.830
147.063
147.229
147.242
147.231
147.277
147.322
147.366
147.410
147.454
147.497
147.539
147.581
147.622
147.663
147.703
147.743
147.782
147.820
147.858
147.896
147.933
147.969
148.005
148.040
148.074
148.080
148.140
148.350
148.293
148.094
147.926
148.006
148.357
148.728
148.954
148.845
148.512
148.204
148.222
148.227
147.852
147.371
147.031
146.956
146.912
146.817
146.194
145.658
145.385
146.039
147.290
148.653
149.780
150.356
150.496
150.529
150.575
150.292
150.152
153.155
162.578
180.467
208.703
247.260
293.023
339.693
380.073
407.573
418.203
409.243
381.313
337.673
283.933
226.746
173.051
128.694
97.002
80.214
77.784
87.883
106.060
126.791
144.921
156.204
159.262
155.833
149.282
141.888
135.730
132.613
133.011
135.136
137.287
139.202
141.023
142.493
143.969
145.455
147.470
149.453
151.386
153.076
154.654
156.078
157.461
158.809
159.613
160.153
160.479
161.025
161.761
162.640
163.653
164.622
165.397
165.994
166.617
167.101
167.538
167.944
168.150
168.445
168.413
168.194
167.772
166.835
165.839
164.735
164.213
164.042
164.083
163.904
163.757
163.888
164.750
166.119
167.623
169.075
170.283
171.518
172.588
173.612
174.246
174.866
175.311
176.334
177.579
178.797
180.272
181.824
183.045
184.366
185.746
186.381
185.994
184.632
181.777
178.249
174.464
170.622
166.865
162.973
159.573
156.812
154.779
153.279
151.835
150.184
148.359
147.083
146.220
145.585
144.677
143.627
142.615
142.123
141.842
141.664
141.817
141.840
141.522
141.241
141.325
141.376
141.519
141.895
141.656
141.590
141.538
141.721
141.721
139.940
137.235
134.313
131.090
128.218
125.613
123.325
121.324
120.061
119.606
120.010
120.803
121.279
121.575
121.637
121.803
122.292
122.728
123.211
123.151
122.974
122.596
122.784
122.843
123.185
123.485
123.759
124.077
124.430
125.309
125.869
126.022
126.014
125.768
125.762
126.095
126.581
126.644
126.419
126.291
126.302
126.550
126.910
127.069
126.652
126.148
125.722
125.625
125.905
126.030
126.419
127.104
128.484
129.410
129.255
127.416
123.746
118.899
114.329
111.858
111.961
115.092
121.487
131.713
145.503
162.706
182.093
202.712
224.509
247.739
271.419
294.589
317.119
339.739
362.299
385.259
408.049
429.319
446.379
457.559
462.029
459.629
450.889
435.929
415.549
390.649
361.719
329.519
294.909
258.809
221.939
184.842
148.401
114.413
83.918
57.990
35.964
17.819
3.579
-5.851
-10.261
-11.141
-9.661
-6.951
-3.861
-0.521
3.839
9.189
14.339
19.709
24.716
29.884
35.558
41.027
45.962
50.174
53.442
56.020
58.402
60.743
62.863
64.460
65.169
65.309
65.044
64.562
63.665
62.508
60.851
59.259
57.929
56.742
55.848
55.046
54.336
53.764
53.736
53.856
53.779
53.709
52.894
51.835
50.859
49.730
48.416
46.950
45.371
44.013
43.367
43.097
43.387
43.469
43.545
43.621
44.092
44.848
45.604
46.273
46.487
47.019
48.064
49.618
51.533
53.616
55.686
58.001
60.699
63.427
66.641
69.578
72.165
74.666
77.243
79.863
82.524
84.982
86.975
88.966
91.240
93.658
96.504
98.923
101.223
103.331
105.714
108.261
110.834
113.462
115.460
116.939
118.761
120.813
122.984
125.199
126.840
128.180
129.192
129.917
130.613
130.630
130.630
130.701
130.611
130.312
130.287
130.893
132.043
133.500
135.224
136.952
138.603
140.543
142.712
144.948
147.075
148.710
149.538
149.456
149.052
148.507
148.019
147.128
145.849
144.668
143.452
142.615
141.972
141.040
139.660
138.010
136.376
135.073
134.158
133.286
132.512
132.199
132.443
133.253
134.368
134.935
134.849
134.138
133.030
131.714
130.356
128.811
126.856
124.686
122.970
121.899
121.773
121.800
121.841
121.772
121.794
121.829
121.714
121.462
121.320
121.812
122.741
123.989
125.081
125.293
124.350
122.038
118.744
114.386
108.942
102.988
99.545
101.824
112.775
135.500
171.743
218.767
270.284
318.694
356.754
378.204
379.174
358.804
319.664
266.434
205.786
144.738
89.881
46.933
19.514
10.034
17.044
36.554
62.487
88.304
108.952
121.465
126.194
125.117
120.614
115.104
111.796
111.067
111.605
112.003
112.576
113.095
113.638
114.160
115.049
115.936
116.659
117.125
117.645
118.282
119.418
121.480
123.677
125.630
126.885
127.867
128.618
129.293
129.884
130.055
129.988
130.248
131.045
132.349
134.373
136.310
138.031
139.667
141.982
144.403
146.737
148.874
150.721
152.771
155.289
157.816
160.497
163.335
166.047
168.288
170.765
173.715
176.106
178.008
179.560
180.690
181.774
182.988
183.999
184.271
184.121
184.031
184.152
184.465
185.106
185.367
184.988
184.145
183.448
182.874
182.267
181.262
179.477
177.455
175.224
173.086
170.767
168.316
165.235
161.640
158.341
155.450
152.783
150.012
147.334
144.759
142.714
141.542
140.684
139.743
138.594
137.317
136.069
135.165
134.546
134.008
133.354
132.722
132.156
132.141
132.785
133.287
133.461
133.603
133.682
134.138
134.681
134.681
136.176
137.680
138.394
138.921
139.543
139.928
140.399
141.008
141.717
143.054
144.621
146.640
148.344
149.365
149.835
149.320
148.450
147.601
146.525
145.136
143.706
142.124
140.882
140.165
139.850
139.517
138.751
138.032
137.301
136.945
137.258
137.541
137.416
137.460
137.764
138.243
138.722
138.709
137.848
136.252
134.033
132.230
130.882
129.462
128.408
126.953
125.521
125.071
125.785
126.756
127.285
126.432
125.280
124.500
124.466
124.491
124.751
125.416
126.472
127.955
129.768
131.196
131.504
130.551
128.429
125.524
121.503
116.812
113.456
113.942
120.827
136.739
164.100
203.876
252.960
304.075
350.125
385.105
404.285
404.255
384.035
344.895
291.805
231.670
171.369
117.203
74.652
46.435
33.845
35.855
49.195
68.467
88.719
105.342
116.683
122.753
123.847
121.678
118.965
117.792
118.630
120.146
121.371
122.290
123.083
123.107
122.745
122.212
121.888
121.796
122.523
123.535
124.683
125.974
126.708
126.925
127.198
126.969
126.638
126.449
126.523
126.851
127.454
128.053
129.082
130.998
132.899
134.815
136.405
137.119
137.739
138.659
139.895
141.007
141.957
142.594
143.823
146.326
149.523
152.578
155.564
158.290
161.188
164.638
168.039
171.488
175.074
178.314
181.520
184.844
188.033
191.149
193.806
195.940
197.675
199.641
201.051
201.813
201.869
201.092
200.353
199.937
199.706
199.417
198.615
196.829
194.201
191.844
189.474
186.811
183.784
180.371
176.641
172.861
169.124
165.597
162.477
159.213
156.175
153.978
151.958
149.907
147.989
145.603
143.309
141.828
140.868
140.176
139.766
138.727
137.488
136.165
135.340
135.158
135.447
135.948
136.226
136.694
137.455
138.582
138.582
139.528
140.181
140.298
139.432
137.271
133.949
129.702
124.528
118.921
113.296
107.822
103.280
100.024
97.526
96.102
95.403
94.548
93.956
93.547
93.625
94.169
94.604
94.427
93.910
93.426
93.208
93.009
92.861
92.233
91.598
91.028
90.961
90.942
91.273
91.483
91.850
92.271
93.025
93.989
94.747
95.155
95.409
95.789
96.027
96.341
96.455
96.422
96.139
96.277
96.558
97.479
98.641
99.944
101.615
103.009
103.905
103.482
101.353
97.528
93.941
92.082
93.355
98.061
106.337
117.758
132.208
149.115
168.662
190.263
213.031
235.761
258.261
280.541
302.771
324.791
345.231
362.861
376.631
386.421
391.141
390.061
382.191
367.351
346.761
321.801
293.821
264.101
232.751
199.444
165.617
132.081
100.038
70.786
44.525
21.855
2.898
-11.879
-22.139
-27.339
-28.029
-25.709
-21.719
-16.939
-11.869
-6.459
-0.729
4.451
9.516
14.417
19.570
25.006
30.274
34.630
38.295
41.570
44.622
47.527
50.064
51.795
52.858
53.254
53.035
52.531
51.889
50.835
49.383
48.311
47.253
46.525
45.766
44.858
44.201
43.582
43.061
42.548
42.183
41.417
40.769
40.569
40.614
40.878
41.307
41.397
41.676
41.888
42.605
43.621
44.767
45.778
46.856
48.336
50.163
52.382
55.231
57.867
60.456
63.667
67.188
70.723
73.764
76.346
79.104
81.806
84.764
87.967
91.247
94.096
96.875
100.218
103.682
107.207
110.821
113.831
116.584
119.186
121.814
124.538
127.243
129.524
131.543
133.623
135.925
138.035
139.963
141.178
141.837
142.346
142.944
143.315
143.483
143.195
142.351
141.269
140.347
139.882
140.106
140.256
140.245
139.855
138.986
138.986
139.062
139.103
139.511
140.266
141.044
141.177
141.285
141.664
142.992
144.733
146.678
148.334
149.739
151.134
152.594
154.023
154.943
155.171
154.960
154.297
154.105
154.277
154.757
154.628
153.872
152.458
151.140
149.677
148.100
146.410
144.337
142.041
140.642
140.226
140.558
140.789
140.894
140.898
141.079
140.804
140.047
138.320
136.004
133.597
131.594
130.070
128.612
127.122
126.181
125.534
125.778
126.618
127.398
127.333
126.482
125.135
124.305
124.037
124.095
124.650
125.347
126.100
127.367
128.714
129.328
128.217
124.069
116.912
109.309
104.271
104.038
112.314
132.342
165.250
207.303
252.591
293.131
322.231
335.451
330.431
307.391
269.181
220.594
167.093
115.049
70.431
38.421
22.231
21.421
34.001
55.256
79.598
101.708
117.959
126.563
128.885
126.843
123.297
121.150
121.914
123.758
124.917
125.194
125.695
126.482
127.805
129.116
130.037
130.511
131.085
131.778
132.288
133.035
133.517
133.489
133.550
134.045
135.684
137.346
139.061
140.323
141.363
142.733
144.826
146.874
149.025
151.032
152.982
154.412
155.831
157.227
158.128
158.662
159.051
159.881
161.532
163.510
165.756
167.600
169.656
172.286
175.382
178.775
181.928
184.330
185.969
187.124
188.392
189.722
191.095
192.049
192.585
193.068
193.526
193.590
193.392
192.771
192.407
192.448
192.693
192.457
191.251
189.393
187.227
184.756
181.883
178.376
174.345
169.346
164.169
159.653
156.320
153.632
150.897
148.479
146.519
145.082
144.096
143.450
142.707
141.352
139.654
138.265
137.279
136.579
135.979
135.105
134.832
135.020
136.319
138.015
139.253
139.868
140.382
140.656
141.044
141.828
142.293
142.148
141.209
141.209
138.137
134.280
129.763
125.163
120.270
115.789
112.227
109.261
107.378
106.476
106.255
106.550
106.927
107.248
107.640
108.582
109.437
110.084
110.555
110.492
110.667
111.211
112.031
113.196
113.925
113.786
113.862
114.349
114.691
115.204
115.223
114.793
114.258
114.277
114.415
114.596
114.839
114.881
114.983
115.625
116.297
117.245
117.756
117.966
118.042
118.649
119.511
120.514
121.505
122.008
122.772
123.896
124.936
125.208
123.934
120.975
116.828
112.430
109.593
110.241
115.560
126.726
143.758
166.728
195.223
229.011
267.071
308.711
353.161
400.331
448.161
495.091
539.201
580.371
618.161
652.381
682.551
707.291
724.871
733.251
733.021
726.511
715.191
699.871
681.901
662.621
642.731
621.471
597.031
566.741
528.311
481.161
424.931
360.861
291.451
219.651
148.518
81.298
21.790
-26.229
-61.729
-84.969
-97.369
-100.959
-98.439
-92.159
-84.179
-76.069
-68.929
-63.819
-60.419
-57.109
-52.559
-46.889
-40.539
-34.629
-29.179
-23.949
-19.419
-15.399
-12.299
-9.939
-8.369
-7.129
-6.379
-6.349
-7.269
-8.949
-10.599
-11.649
-12.649
-13.899
-15.299
-17.289
-19.379
-20.989
-22.439
-24.159
-26.489
-28.969
-31.449
-33.359
-34.969
-36.689
-38.489
-40.539
-42.259
-43.279
-44.109
-44.619
-45.199
-45.869
-46.609
-46.699
-46.389
-45.709
-45.039
-44.679
-43.889
-42.279
-40.169
-37.609
-34.929
-32.249
-29.479
-26.179
-22.439
-18.439
-14.559
-10.729
-6.939
-2.439
2.271
7.245
12.175
17.124
22.238
28.005
33.855
39.630
45.167
50.514
55.887
61.629
67.619
73.896
80.142
85.864
91.402
96.878
102.117
107.454
113.005
118.663
123.896
128.532
132.795
136.174
138.378
139.297
139.297
136.754
132.650
127.737
122.482
116.861
111.247
105.855
101.158
96.721
92.668
88.920
85.433
82.599
80.326
78.741
78.397
78.272
77.870
77.275
77.422
78.311
79.854
82.034
83.851
85.504
86.330
86.578
86.733
86.748
86.368
85.619
84.616
83.469
82.664
82.427
82.028
81.765
81.649
81.417
81.660
81.981
81.783
81.099
80.145
78.952
79.143
80.651
81.932
82.424
83.303
84.626
86.839
89.165
89.888
88.886
86.021
81.818
77.893
75.070
74.013
75.898
81.837
92.154
106.351
123.469
142.811
163.723
185.237
207.297
228.987
249.547
268.407
286.047
303.497
320.097
336.877
353.237
366.357
374.367
377.207
374.857
366.927
353.197
333.097
308.177
279.767
249.187
217.877
186.407
154.249
122.316
91.462
63.434
38.327
15.305
-5.697
-24.253
-40.453
-52.943
-61.143
-65.253
-66.493
-66.043
-63.823
-59.873
-53.823
-46.513
-39.843
-34.353
-29.703
-24.763
-19.427
-14.376
-10.766
-7.765
-4.793
-1.806
1.292
4.908
8.306
11.404
13.190
14.346
15.154
15.353
15.007
14.540
13.402
11.503
9.301
7.159
5.111
3.255
1.897
2.079
3.609
5.355
6.451
6.531
5.550
4.270
3.368
2.443
0.834
-0.908
-1.878
-2.438
-2.556
-2.337
-1.627
-0.224
1.060
2.309
3.269
3.798
4.179
4.894
6.374
8.715
11.869
15.823
19.782
23.149
25.608
27.577
29.209
31.215
33.454
36.010
39.127
42.666
46.371
49.500
51.977
54.126
56.680
59.566
62.803
65.977
68.821
71.713
74.500
77.578
80.648
83.834
86.462
88.685
90.339
91.135
92.113
93.842
95.771
97.726
99.303
100.662
101.993
103.284
104.353
105.454
106.983
106.983
106.359
105.883
105.190
104.651
104.409
104.453
104.706
104.457
103.426
101.748
99.294
96.178
92.456
87.953
82.923
77.541
72.199
67.419
63.567
60.594
58.207
56.398
55.157
54.509
54.289
54.466
54.775
54.814
55.013
55.506
56.096
56.732
57.077
57.114
57.214
57.379
58.093
58.615
58.808
58.755
58.766
59.367
60.177
60.970
61.502
61.913
62.098
62.554
63.321
64.244
64.902
65.921
67.585
69.224
70.100
69.382
66.269
60.715
55.180
52.521
54.179
61.194
73.364
90.729
114.016
143.605
178.911
218.871
262.441
307.991
353.301
397.311
438.821
477.261
511.561
542.001
567.411
586.081
597.211
600.741
596.451
585.081
568.351
549.121
528.661
507.151
482.091
449.981
409.561
360.481
303.371
240.421
173.981
106.639
42.519
-15.062
-64.099
-102.499
-128.949
-142.699
-145.689
-140.489
-130.819
-120.429
-111.739
-104.599
-98.569
-93.699
-89.429
-84.549
-78.639
-72.289
-66.469
-61.289
-56.899
-53.099
-50.269
-48.539
-47.129
-46.319
-46.319
-47.129
-48.499
-50.819
-52.849
-54.379
-55.519
-56.689
-58.279
-60.149
-62.109
-63.949
-65.349
-66.999
-68.909
-71.039
-73.099
-74.589
-75.989
-77.159
-78.239
-79.519
-80.539
-81.419
-82.139
-82.499
-82.869
-83.209
-82.929
-82.319
-81.169
-79.879
-78.359
-77.139
-75.619
-73.739
-71.239
-68.709
-65.779
-62.789
-59.399
-55.349
-50.769
-45.859
-40.982
-36.243
-31.897
-26.895
-22.148
-17.137
-12.000
-7.042
-1.809
3.826
9.513
15.497
21.382
26.956
32.621
38.391
44.045
49.544
54.637
59.409
63.941
68.605
73.455
77.801
81.971
85.695
88.981
91.863
94.294
96.329
97.823
99.214
100.449
102.292
104.045
105.711
105.711
107.215
108.242
109.056
109.621
109.481
108.214
105.681
102.199
98.209
93.643
88.262
82.697
77.116
72.439
68.875
66.801
65.636
64.636
64.249
63.815
63.917
64.298
64.403
64.377
64.143
63.656
63.611
63.836
64.133
64.442
64.770
64.788
64.923
65.411
65.775
65.649
65.007
64.500
64.295
64.352
64.472
64.512
64.517
64.665
64.842
65.676
66.655
67.368
68.200
68.681
69.665
71.140
72.984
74.777
75.465
74.664
71.988
67.063
61.253
56.852
56.375
61.488
72.921
90.978
115.677
146.709
183.785
226.285
273.005
322.685
373.235
422.185
467.915
509.885
547.455
580.585
609.015
631.915
647.555
654.355
652.905
643.775
628.255
608.095
585.675
563.485
542.325
519.785
492.755
458.445
415.945
364.905
305.745
240.075
170.550
100.480
33.552
-26.923
-77.475
-115.625
-140.615
-153.675
-156.745
-152.565
-144.405
-135.475
-127.105
-120.145
-114.975
-111.625
-108.165
-103.885
-98.695
-93.165
-87.805
-83.095
-78.365
-74.155
-70.705
-68.305
-66.145
-64.325
-63.105
-62.485
-62.695
-64.065
-65.905
-68.045
-69.885
-71.545
-73.385
-75.585
-77.765
-79.905
-81.505
-83.075
-84.505
-86.515
-88.405
-90.155
-91.335
-92.455
-93.615
-95.155
-96.555
-97.845
-98.555
-99.225
-99.805
-100.635
-101.245
-101.875
-102.035
-101.705
-101.075
-100.775
-99.995
-98.845
-97.055
-95.005
-92.945
-91.125
-89.355
-87.045
-84.155
-80.935
-77.435
-74.065
-70.445
-66.365
-61.665
-56.535
-51.345
-46.485
-41.465
-36.285
-30.765
-25.091
-19.213
-13.562
-7.667
-1.883
4.042
10.296
16.679
22.564
28.203
33.647
39.190
45.099
50.992
56.522
61.211
65.516
69.457
73.153
76.202
78.556
80.508
82.266
82.266
81.686
81.308
80.853
80.715
80.706
80.896
81.288
82.041
83.056
84.487
86.335
88.176
89.604
91.203
92.970
94.656
95.970
96.415
96.038
94.992
94.486
94.522
94.631
94.619
94.299
93.938
93.838
93.632
92.714
91.480
89.459
87.125
85.008
83.269
82.180
81.612
81.443
81.898
82.609
83.357
84.137
84.060
82.600
80.709
78.322
76.101
74.001
71.902
70.017
68.401
67.833
68.317
69.335
70.124
70.349
69.499
68.767
68.130
67.704
67.674
67.658
67.313
67.422
67.419
67.037
65.493
61.906
56.109
49.936
46.639
48.390
58.027
78.459
111.573
154.127
200.382
242.762
274.142
288.952
284.602
260.942
220.962
169.266
112.110
56.514
8.704
-25.978
-44.388
-45.918
-32.868
-9.968
16.454
41.023
59.407
69.565
71.970
68.830
63.025
58.153
56.763
58.018
59.804
61.048
62.443
64.055
65.691
66.799
67.331
67.269
66.980
67.174
67.727
68.583
69.460
70.301
71.396
72.825
74.226
75.392
75.974
75.928
75.839
75.909
76.949
78.544
80.328
81.993
83.829
86.085
88.575
91.430
93.941
95.856
97.543
99.326
101.439
103.584
105.807
107.992
109.972
112.419
114.529
116.376
117.696
118.271
118.442
119.323
120.612
122.422
124.092
125.533
127.027
128.698
130.550
132.278
133.557
134.242
134.482
134.481
134.034
133.535
132.597
131.670
131.203
131.212
131.408
131.092
129.947
127.800
125.350
122.759
119.965
116.807
113.318
109.491
105.569
102.364
100.301
99.065
98.038
97.258
96.620
96.492
96.348
95.692
94.049
91.738
89.094
86.696
84.525
83.348
82.178
81.049
80.043
79.364
79.092
79.602
79.898
80.093
79.712
79.712
77.442
75.039
72.393
69.614
66.791
64.374
62.267
60.878
59.635
58.593
57.571
56.773
56.383
56.039
55.571
55.194
54.886
54.530
54.673
54.989
55.532
55.736
55.950
56.143
56.718
57.376
57.801
57.987
58.290
58.662
59.185
59.809
60.052
60.054
59.815
59.694
59.815
60.340
60.773
61.033
61.121
61.103
61.701
62.019
62.268
62.225
62.387
62.319
62.531
62.688
63.211
63.593
63.585
62.645
60.867
57.434
52.640
47.530
44.029
43.242
45.799
51.955
62.032
75.152
91.279
110.173
131.526
155.347
180.595
206.065
231.615
256.835
282.695
308.475
334.055
358.005
379.065
394.885
404.695
407.215
401.845
388.585
368.295
342.565
313.175
280.345
244.805
207.195
168.895
130.552
92.994
57.368
25.274
-3.478
-28.069
-48.885
-65.715
-77.945
-85.435
-89.135
-89.325
-87.365
-83.715
-79.515
-74.765
-69.605
-64.075
-58.755
-53.375
-47.665
-41.828
-36.475
-31.891
-27.361
-23.341
-20.127
-17.531
-15.562
-13.976
-12.503
-11.492
-11.204
-11.605
-12.507
-13.322
-13.977
-14.302
-14.455
-14.333
-14.815
-15.490
-16.096
-16.701
-17.413
-18.423
-19.885
-21.255
-22.553
-23.609
-24.531
-25.281
-26.151
-27.387
-28.159
-28.676
-29.148
-29.612
-30.302
-31.233
-31.853
-32.027
-31.907
-31.690
-31.420
-30.926
-30.111
-28.771
-27.117
-25.330
-23.776
-22.198
-20.260
-18.217
-15.751
-13.472
-11.434
-9.210
-6.793
-4.010
-1.209
1.407
3.946
6.540
9.384
12.404
15.505
18.372
21.021
23.556
26.250
28.958
31.828
34.347
36.448
38.357
40.239
42.367
44.551
46.699
48.775
50.756
52.936
55.194
57.760
60.600
63.302
65.770
67.746
69.122
69.772
69.772
68.640
66.926
64.950
62.285
59.394
56.727
54.518
53.032
52.503
52.974
54.776
57.440
60.176
62.596
64.475
64.800
63.880
61.434
57.375
52.387
46.478
40.064
33.881
28.147
23.542
19.680
17.123
15.707
14.804
14.827
15.407
16.273
17.265
17.685
17.696
17.499
17.074
16.659
16.424
16.106
16.318
16.736
17.340
17.962
18.922
19.408
19.620
19.394
18.688
17.564
16.405
15.644
15.799
17.192
19.659
21.710
23.041
22.723
20.313
16.138
11.895
9.912
12.530
21.216
36.140
55.667
77.107
98.170
116.393
131.893
147.083
163.633
183.943
207.863
233.323
256.453
273.453
280.713
275.213
255.343
220.313
171.263
110.596
42.217
-28.499
-95.627
-153.047
-196.127
-222.487
-233.317
-232.507
-224.867
-216.147
-210.877
-210.587
-214.337
-219.437
-222.207
-221.187
-215.377
-204.727
-189.847
-170.977
-149.027
-124.907
-100.057
-75.806
-53.165
-33.595
-17.683
-6.100
2.042
7.352
10.437
12.464
14.222
16.106
18.176
20.399
22.273
23.627
24.585
25.147
25.133
24.644
24.307
23.623
23.153
22.730
22.061
20.930
19.452
17.839
16.364
14.720
13.086
11.681
10.935
10.430
9.839
9.103
7.920
6.347
4.153
1.847
-0.188
-2.102
-3.859
-5.575
-7.393
-8.659
-9.700
-10.201
-10.996
-11.896
-12.751
-13.810
-14.441
-14.582
-14.370
-13.928
-13.236
-12.231
-10.999
-9.688
-8.561
-7.533
-6.364
-5.184
-3.848
-1.804
0.770
3.943
7.657
11.853
16.695
21.703
26.364
30.538
34.047
37.104
39.536
42.273
44.599
47.465
50.217
52.736
54.961
57.548
59.810
61.597
63.008
64.200
65.204
66.194
66.933
67.327
68.392
69.553
70.897
