-1.425
-1.764
-1.994
-2.106
-2.125
-1.883
-1.465
-0.827
0.029
0.997
2.045
3.246
4.500
5.397
5.576
5.291
4.954
4.924
4.814
4.706
3.965
3.256
2.577
2.434
2.187
1.388
-0.085
-1.797
-3.597
-4.979
-6.161
-7.028
-7.512
-7.540
-6.922
-6.096
-5.743
-6.124
-7.327
-9.273
-12.092
-15.109
-17.853
-20.184
-22.189
-23.815
-24.800
-24.753
-24.004
-22.709
-22.036
-21.750
-21.624
-21.503
-21.611
-21.728
-22.299
-22.300
-21.540
-20.008
-18.329
-17.301
-17.488
-18.845
-20.630
-23.085
-26.313
-30.730
-35.805
-40.291
-41.625
-37.052
-25.604
-5.882
24.267
64.140
109.600
154.410
191.970
216.290
222.900
210.290
179.910
134.880
80.420
22.621
-32.860
-79.431
-112.860
-130.760
-133.220
-122.830
-104.030
-81.312
-59.409
-41.650
-29.704
-24.273
-23.966
-26.727
-29.077
-28.810
-27.753
-27.097
-26.432
-25.456
-24.155
-23.032
-22.435
-21.807
-21.454
-21.382
-21.286
-21.265
-21.036
-21.144
-21.591
-21.826
-21.483
-20.230
-18.832
-17.690
-16.962
-16.257
-15.294
-13.878
-12.134
-10.515
-9.017
-7.596
-5.763
-3.557
-1.720
-0.485
-0.000
0.382
1.051
1.874
2.470
3.418
4.427
6.107
8.401
11.578
15.438
19.326
22.441
25.038
27.106
29.332
31.610
33.682
35.248
36.536
37.802
39.001
40.152
40.993
41.384
41.366
41.533
41.788
42.466
42.751
42.469
42.533
43.028
43.750
44.364
44.129
42.730
40.673
37.901
34.747
31.599
28.542
25.342
22.396
19.691
17.423
15.435
13.575
11.030
8.428
6.002
3.836
1.773
-0.196
-1.991
-3.915
-5.467
-6.317
-6.031
-5.616
-5.303
-5.421
-5.894
-6.843
-7.944
-9.162
-10.283
-10.932
-10.880
-10.589
-9.841
-8.630
-7.410
-6.398
-5.602
-4.880
-3.697
-2.388
-1.568
-1.113
-0.407
0.523
1.103
1.518
1.963
1.714
0.748
-0.739
-2.365
-3.937
-5.084
-6.028
-6.501
-6.356
-5.863
-5.306
-5.269
-5.811
-6.713
-7.927
-9.045
-9.981
-10.792
-11.817
-12.988
-14.305
-15.245
-16.123
-17.135
-19.033
-21.293
-23.399
-25.001
-25.920
-25.963
-25.863
-25.851
-25.799
-25.726
-25.533
-25.517
-26.229
-27.631
-29.021
-29.524
-28.868
-27.242
-25.142
-23.569
-22.526
-22.331
-23.167
-24.915
-28.621
-34.187
-40.853
-46.272
-47.242
-41.941
-28.839
-5.954
27.783
70.580
116.710
159.290
192.200
210.190
210.390
191.900
156.350
108.110
52.713
-3.551
-54.848
-95.259
-121.660
-132.720
-129.870
-116.590
-96.879
-75.513
-56.155
-41.354
-32.491
-29.528
-30.309
-31.686
-31.134
-29.189
-27.433
-26.627
-26.185
-24.969
-23.573
-23.002
-23.059
-23.507
-23.574
-23.281
-22.860
-22.317
-21.727
-21.145
-20.837
-20.113
-18.948
-17.217
-15.751
-14.561
-13.517
-12.379
-10.677
-8.375
-5.912
-4.267
-3.099
-2.091
-0.974
0.557
2.381
4.301
6.294
8.748
11.445
14.431
17.086
19.166
20.813
22.525
24.763
27.005
28.861
30.890
32.720
34.887
37.039
39.245
40.765
41.679
42.416
42.910
43.200
43.523
43.996
44.707
45.688
47.126
48.661
49.705
49.646
48.367
45.968
42.698
38.985
35.526
32.432
29.351
26.277
23.687
22.318
21.543
20.829
19.607
17.635
15.261
12.497
9.407
5.634
1.369
-2.501
-5.616
-7.684
-9.159
-10.149
-10.696
-11.798
-12.940
-13.319
-13.051
-12.390
-12.106
-12.526
-13.277
-13.865
-14.106
-13.840
-13.739
-13.481
-13.432
-13.361
-13.058
-12.502
-12.524
-12.418
-12.516
-12.296
-11.426
-9.991
-8.790
-8.087
-7.652
-6.935
-5.979
-4.477
-2.687
-1.534
-1.439
-1.845
-2.617
-3.521
-5.120
-6.837
-7.961
-8.126
-7.819
-7.542
-7.516
-7.542
-7.786
-8.489
-9.020
-9.284
-9.309
-9.002
-9.433
-10.343
-11.451
-12.007
-12.691
-14.081
-16.343
-19.010
-21.389
-23.155
-24.762
-26.137
-27.170
-27.149
-26.116
-24.587
-24.011
-23.972
-24.362
-25.003
-25.450
-25.790
-25.576
-25.035
-23.981
-23.009
-22.190
-21.977
-22.982
-25.776
-30.153
-36.037
-42.219
-46.392
-45.960
-39.817
-25.823
-1.036
35.949
81.949
130.620
174.900
208.450
226.400
225.580
205.160
167.010
116.040
58.588
1.407
-49.056
-88.238
-112.860
-122.410
-118.450
-104.120
-83.423
-61.311
-42.170
-29.635
-23.909
-24.322
-27.640
-30.950
-31.614
-30.639
-29.410
-28.861
-28.247
-27.474
-26.779
-26.410
-26.408
-26.119
-24.865
-23.089
-21.298
-20.380
-20.245
-20.037
-19.716
-19.240
-18.490
-17.467
-16.321
-15.283
-13.837
-12.088
-9.882
-8.271
-7.460
-6.956
-5.622
-3.831
-2.231
-0.770
1.010
3.050
5.418
7.927
10.434
12.549
14.148
15.102
16.236
17.056
17.536
17.654
18.293
20.465
24.259
29.279
33.949
37.822
41.337
44.170
46.128
47.194
47.335
46.978
45.906
43.957
41.990
40.826
40.641
41.458
42.926
44.434
45.281
45.435
45.606
44.853
43.049
39.310
35.247
31.762
29.381
27.404
26.103
25.326
24.944
24.423
22.403
18.424
13.865
9.938
6.556
3.684
0.540
-1.804
-3.127
-3.741
-4.428
-5.449
-6.512
-7.111
-6.957
-6.647
-7.230
-9.034
-10.358
-10.375
-8.418
-6.080
-4.557
-4.094
-4.875
-6.568
-7.929
-8.569
-8.317
-7.765
-6.523
-4.576
-1.910
1.234
4.009
6.468
8.351
10.365
12.004
13.376
13.666
12.669
10.663
8.306
5.839
2.965
0.036
-3.124
-6.050
-8.610
-9.927
-9.830
-9.020
-8.076
-8.064
-8.273
-8.157
-7.370
-5.859
-5.312
-5.900
-6.810
-6.750
-6.013
-6.132
-7.907
-10.784
-13.494
-15.459
-16.625
-17.711
-19.038
-20.716
-21.335
-20.773
-19.778
-19.238
-19.842
-21.850
-24.166
-25.903
-26.036
-24.719
-22.625
-20.685
-18.696
-16.977
-15.753
-15.100
-16.211
-20.350
-26.975
-31.962
-31.303
-22.302
-2.119
30.617
73.785
122.570
170.100
209.170
233.150
236.750
219.240
182.760
132.260
72.929
10.733
-48.018
-96.673
-130.540
-146.700
-145.920
-131.510
-108.640
-83.181
-60.869
-45.046
-36.475
-33.430
-33.980
-36.310
-37.712
-37.811
-37.759
-37.770
-37.285
-36.335
-35.047
-33.457
-31.452
-28.627
-25.783
-23.385
-21.758
-20.293
-19.588
-19.580
-20.236
-21.266
-22.832
-24.002
-24.577
-24.999
-25.338
-25.732
-26.438
-26.824
-26.554
-25.004
-22.763
-20.836
-19.626
-19.152
-18.450
-17.241
-15.056
-12.099
-8.555
-5.174
-2.702
-0.737
0.665
2.123
3.847
6.339
8.639
10.733
12.692
14.386
15.072
15.292
15.797
16.452
17.434
17.995
18.245
18.285
18.547
19.709
22.236
25.984
30.151
33.637
36.076
37.069
37.195
36.683
35.916
34.226
31.650
28.402
24.431
19.977
15.191
10.741
6.787
2.465
-1.433
-5.030
-8.447
-11.478
-13.874
-16.167
-18.248
-20.260
-21.949
-23.173
-23.630
-24.393
-25.372
-26.116
-26.030
-25.793
-25.349
-24.887
-24.020
-22.886
-21.596
-20.668
-20.113
-19.517
-18.986
-18.459
-17.858
-17.190
-16.338
-15.724
-14.989
-14.304
-13.772
-13.037
-11.540
-9.653
-7.277
-5.101
-3.568
-2.114
-0.293
1.388
2.959
4.015
4.935
4.962
4.626
4.152
3.987
3.892
3.638
2.636
1.031
-0.686
-2.407
-4.067
-5.758
-7.448
-9.499
-11.072
-11.751
-11.523
-10.553
-9.277
-8.260
-7.420
-6.713
-6.566
-7.723
-9.975
-12.948
-15.858
-18.329
-20.766
-22.657
-24.207
-24.911
-24.773
-23.546
-21.835
-19.948
-18.992
-18.818
-19.278
-19.480
-19.006
-18.128
-17.133
-16.510
-16.282
-16.588
-18.071
-21.268
-26.677
-33.734
-39.888
-42.117
-37.402
-21.763
7.763
49.588
98.701
148.010
190.290
218.770
228.260
216.930
185.530
138.530
81.568
21.375
-35.656
-82.956
-115.790
-131.630
-130.910
-116.930
-94.732
-70.184
-48.774
-33.686
-25.933
-24.389
-26.809
-30.171
-31.880
-31.022
-30.232
-30.025
-29.708
-29.319
-28.478
-27.422
-25.896
-24.232
-22.690
-21.363
-20.304
-19.304
-17.993
-16.968
-16.498
-16.154
-15.520
-14.457
-13.249
-12.018
-10.831
-9.669
-8.503
-7.161
-5.768
-4.604
-3.777
-3.024
-1.722
0.725
3.876
7.255
10.250
12.501
14.664
16.709
18.897
20.928
22.684
24.291
26.293
28.364
30.850
33.026
34.771
36.133
37.505
38.933
40.364
41.971
43.185
44.027
44.764
45.634
46.514
47.054
46.985
46.158
44.922
43.472
41.977
40.324
38.418
36.420
34.635
32.645
30.757
27.932
24.499
20.357
15.967
11.705
7.824
4.487
1.928
-0.084
-1.362
-1.972
-2.322
-2.422
-3.088
-4.213
-5.592
-6.618
-7.573
-8.734
-9.559
-10.179
-10.314
-9.857
-8.467
-6.460
-4.604
-3.325
-2.455
-2.055
-1.827
-2.429
-3.181
-4.460
-5.815
-7.190
-8.257
-8.668
-8.795
-8.634
-8.440
-7.808
-6.803
-5.074
-3.304
-1.240
0.309
1.965
3.605
5.075
6.603
7.677
7.852
6.888
5.540
4.450
3.342
2.080
0.737
-0.680
-1.992
-2.760
-3.185
-3.718
-4.319
-5.630
-7.059
-8.111
-9.051
-9.417
-9.791
-9.785
-9.331
-8.722
-8.210
-7.750
-8.183
-9.348
-11.095
-13.148
-15.059
-16.973
-19.138
-21.360
-23.177
-24.031
-24.171
-23.850
-23.329
-23.560
-24.097
-24.353
-24.337
-23.937
-23.326
-23.035
-22.740
-22.758
-23.205
-24.857
-28.215
-33.292
-39.358
-43.989
-44.445
-38.421
-21.927
8.201
51.324
102.160
153.450
196.940
225.560
234.600
222.330
189.940
141.130
81.723
18.840
-40.462
-89.235
-122.300
-137.900
-136.350
-121.320
-97.675
-70.981
-47.318
-30.444
-22.037
-21.037
-24.968
-30.196
-33.037
-33.057
-32.393
-32.192
-32.549
-32.364
-31.731
-30.895
-29.925
-29.105
-28.272
-27.397
-25.765
-24.080
-22.793
-22.144
-22.028
-22.115
-21.965
-21.747
-21.420
-21.392
-21.126
-20.386
-19.107
-17.570
-15.631
-13.999
-12.297
-10.113
-7.507
-4.627
-2.118
0.242
2.218
4.177
6.580
8.764
11.100
13.365
15.315
17.070
19.585
22.258
24.507
26.240
27.711
29.601
31.582
33.624
35.341
36.382
37.015
37.452
38.244
38.997
39.402
38.948
38.253
37.696
37.675
38.325
38.903
39.190
39.056
38.704
38.798
38.436
37.460
35.467
32.266
28.921
25.729
22.373
18.675
14.666
10.588
6.876
3.801
1.468
-0.392
-2.464
-4.388
-5.952
-6.585
-6.555
-6.416
-6.406
-6.562
-6.770
-6.983
-7.106
-6.942
-6.753
-6.818
-6.831
-6.998
-7.111
-7.422
-8.173
-9.243
-10.063
-10.603
-11.087
-11.766
-12.336
-12.728
-12.905
-12.844
-12.313
-11.166
-10.227
-9.380
-8.425
-7.058
-5.418
-3.876
-1.960
0.383
2.714
4.536
5.407
5.632
4.904
3.622
2.825
1.945
0.977
-0.319
-1.975
-2.922
-3.267
-3.488
-3.728
-4.366
-5.467
-6.614
-7.894
-9.225
-10.733
-11.611
-12.070
-11.663
-10.498
-9.030
-7.919
-7.914
-8.777
-10.129
-11.750
-13.596
-16.126
-18.735
-21.382
-23.616
-24.534
-24.547
-24.170
-23.662
-23.876
-23.589
-22.822
-21.729
-20.380
-19.337
-18.621
-17.822
-17.483
-17.445
-19.673
-25.792
-35.763
-46.814
-53.972
-50.069
-29.571
7.812
56.584
108.570
155.730
191.050
208.820
206.480
184.200
145.010
94.512
39.030
-14.921
-60.900
-93.933
-110.660
-110.260
-95.189
-70.594
-44.102
-22.695
-10.666
-9.492
-15.719
-24.416
-30.963
-32.675
-30.269
-26.924
-24.764
-23.831
-23.413
-22.981
-22.725
-22.274
-21.743
-21.505
-21.427
-21.481
-21.904
-21.907
-21.510
-20.938
-20.382
-19.907
-19.354
-18.035
-16.392
-14.226
-12.383
-11.174
-9.796
-8.393
-6.862
-5.324
-3.864
-2.513
-0.498
2.157
5.258
8.510
11.455
14.112
16.385
19.136
21.930
24.471
26.324
27.754
28.908
30.461
32.067
33.612
34.822
35.393
35.799
36.567
37.575
38.608
39.310
39.825
40.702
41.891
42.843
43.267
43.119
42.193
41.076
39.858
38.887
37.491
35.713
33.432
30.777
28.068
25.486
22.702
19.457
15.929
12.585
9.395
6.519
3.698
1.002
-1.675
-3.851
-5.218
-5.813
-6.459
-7.254
-8.264
-9.032
-9.315
-9.444
-9.726
-10.220
-11.088
-11.886
-12.691
-13.289
-14.180
-14.934
-15.427
-15.386
-14.778
-13.690
-12.954
-12.318
-11.565
-10.417
-9.089
-7.694
-6.441
-5.255
-4.460
-3.415
-2.339
-0.905
0.416
1.565
2.681
3.663
4.542
4.915
4.684
3.994
3.084
2.554
2.405
2.067
1.314
0.343
-0.409
-1.053
-1.653
-2.645
-4.203
-6.269
-8.261
-9.574
-9.790
-9.631
-9.184
-8.157
-7.137
-5.626
-4.750
-4.593
-5.490
-8.059
-11.085
-14.236
-17.147
-19.767
-22.090
-24.138
-25.306
-25.386
-24.639
-23.747
-23.150
-22.833
-22.743
-22.876
-22.837
-22.663
-22.254
-21.741
-21.007
-20.046
-19.386
-19.999
-22.127
-25.876
-31.195
-37.523
-43.975
-48.355
-47.106
-38.651
-20.721
8.792
50.109
99.829
150.960
195.340
226.820
240.570
233.640
206.090
161.270
104.880
43.500
-16.321
-67.853
-106.200
-128.540
-134.620
-126.380
-107.300
-83.154
-59.735
-40.859
-28.948
-23.549
-23.300
-26.449
-30.347
-32.252
-32.385
-32.338
-32.371
-32.327
-31.951
-31.392
-31.065
-30.486
-29.317
-27.898
-26.978
-26.923
-26.987
-26.677
-26.162
-25.428
-24.982
-24.677
-24.567
-24.436
-23.632
-22.460
-21.204
-20.020
-19.177
-18.278
-16.815
-15.273
-13.930
-12.666
-11.807
-10.901
-10.126
-8.974
-7.681
-6.388
-5.261
-3.838
-1.867
0.690
3.278
5.256
7.004
8.914
11.212
14.020
16.974
19.508
21.871
24.151
26.909
29.496
31.855
33.778
35.098
36.150
37.342
38.449
39.135
39.514
39.786
40.143
40.353
40.818
41.269
41.152
40.609
39.948
39.260
38.519
37.511
36.160
34.437
32.431
30.598
28.277
25.440
22.160
18.658
15.323
12.537
9.704
7.157
4.724
2.397
0.237
-1.591
-2.989
-4.213
-5.693
-7.092
-8.265
-9.208
-9.907
-10.466
-11.190
-11.898
-12.319
-12.683
-13.076
-13.653
-14.249
-14.610
-14.651
-13.721
-12.762
-12.189
-11.685
-11.359
-10.391
-9.015
-7.722
-6.682
-6.055
-5.676
-5.275
-4.860
-4.378
-4.072
-4.285
-4.858
-5.087
-5.320
-5.548
-5.947
-6.558
-7.471
-8.078
-8.694
-9.402
-10.597
-12.173
-13.553
-14.390
-14.304
-13.761
-13.190
-13.034
-13.636
-14.272
-14.960
-15.916
-17.551
-20.117
-23.077
-25.915
-27.832
-28.777
-29.403
-29.453
-29.188
-28.408
-27.546
-26.965
-26.847
-27.488
-28.802
-29.845
-29.838
-28.970
-27.861
-27.271
-26.921
-27.023
-27.453
-28.964
-31.641
-36.141
-42.284
-47.565
-48.383
-42.027
-26.509
0.154
39.049
86.621
136.660
181.640
214.150
228.840
222.630
196.310
152.720
97.575
37.070
-22.253
-74.178
-112.860
-134.680
-139.430
-129.420
-109.690
-85.455
-61.954
-43.139
-31.671
-26.670
-27.061
-30.369
-33.757
-34.537
-33.042
-31.241
-29.977
-28.774
-27.954
-27.436
-27.468
-27.544
-27.763
-28.335
-28.631
-28.587
-27.905
-26.691
-25.246
-23.739
-22.135
-20.485
-18.781
-17.166
-16.063
-15.437
-14.944
-14.517
-14.370
-13.984
-13.823
-13.247
-11.831
-9.638
-7.224
-4.709
-2.177
0.514
2.890
5.434
7.708
9.701
11.482
13.062
14.648
16.706
18.697
20.648
22.319
24.302
26.680
29.103
31.808
34.179
35.835
37.263
38.436
40.025
41.318
42.293
42.932
43.226
43.721
44.282
44.595
44.606
44.320
43.945
43.618
43.656
43.545
42.843
41.476
39.933
38.278
36.632
35.109
33.421
31.140
28.245
25.607
22.903
20.410
17.935
14.918
11.898
9.199
7.348
5.699
3.682
1.591
-0.403
-2.139
-3.518
-4.459
-5.024
-5.343
-5.593
-5.778
-5.508
-5.479
-5.534
-5.783
-6.278
-6.542
-7.270
-7.371
-7.160
-6.632
-6.286
-5.753
-5.082
-4.160
-2.519
-1.266
-0.185
0.848
1.421
1.985
2.316
2.368
2.722
2.926
2.760
2.186
1.181
0.159
-0.819
-2.030
-3.168
-5.031
-6.335
-7.024
-7.543
-7.781
-8.651
-9.405
-9.801
-9.424
-8.900
-8.752
-9.315
-10.644
-11.956
-13.603
-15.196
-16.946
-19.252
-21.304
-22.901
-24.001
-24.216
-24.242
-24.117
-23.941
-23.701
-23.263
-22.805
-22.710
-23.172
-24.215
-24.601
-24.074
-22.834
-21.036
-19.819
-19.353
-19.284
-20.220
-22.150
-25.254
-30.133
-36.418
-41.677
-42.643
-37.000
-23.560
-0.312
34.736
79.126
127.490
172.670
207.260
224.910
222.660
200.550
161.210
109.420
51.078
-7.779
-60.374
-100.850
-125.670
-133.980
-127.310
-109.770
-86.252
-61.819
-41.569
-27.496
-20.409
-19.849
-24.011
-29.492
-32.512
-32.371
-31.230
-30.605
-30.035
-29.421
-28.832
-28.033
-27.085
-26.430
-26.050
-25.695
-24.922
-23.814
-22.260
-21.137
-20.230
-19.093
-17.651
-16.302
-15.086
-14.186
-13.680
-13.406
-13.401
-13.424
-13.334
-12.923
-12.202
-11.166
-9.732
-8.064
-6.158
-4.412
-2.837
-1.262
0.602
2.709
4.925
7.176
9.089
10.981
13.369
16.195
19.401
22.226
24.514
26.864
29.133
30.708
32.036
32.883
33.772
35.081
36.893
38.506
39.881
40.793
41.258
41.759
42.546
43.174
43.761
44.372
44.412
44.054
44.198
44.431
44.931
45.255
44.653
43.028
40.760
38.124
34.871
31.086
26.475
22.186
18.199
14.397
10.378
6.259
2.568
-0.758
-3.350
-5.400
-6.857
-8.077
-9.493
-11.167
-12.590
-13.863
-14.597
-14.911
-15.483
-16.644
-17.681
-18.314
-18.186
-17.312
-16.559
